# n*frame_step, dG(n), sigma^2(n), Uncertainty(n) 
2 1.259525E+01 6.830451E+02 2.862960E+00 
3 6.618273E+00 3.264574E+02 2.285458E+00 
4 3.194392E+00 1.906156E+02 1.952514E+00 
5 1.024777E+00 1.253435E+02 1.734429E+00 
6 -4.570116E-01 9.163410E+01 1.601797E+00 
7 -1.443790E+00 6.878686E+01 1.483637E+00 
8 -2.351836E+00 5.178139E+01 1.365331E+00 
9 -3.050768E+00 3.781161E+01 1.229823E+00 
10 -3.547437E+00 3.341967E+01 1.212627E+00 
11 -3.987862E+00 2.402616E+01 1.073897E+00 
12 -4.225144E+00 2.394598E+01 1.115881E+00 
13 -4.627800E+00 1.798007E+01 1.003436E+00 
14 -4.828824E+00 1.580095E+01 9.736822E-01 
15 -5.020422E+00 1.381509E+01 9.403010E-01 
16 -5.256476E+00 1.119279E+01 8.724159E-01 
17 -5.408369E+00 1.069777E+01 8.776327E-01 
18 -5.539244E+00 9.683949E+00 8.578928E-01 
19 -5.707225E+00 7.841760E+00 7.920485E-01 
20 -5.771864E+00 7.805937E+00 8.097523E-01 
21 -5.904570E+00 6.665324E+00 7.658646E-01 
22 -5.991148E+00 5.934635E+00 7.389089E-01 
23 -6.078667E+00 5.248472E+00 7.098263E-01 
24 -6.153042E+00 4.900060E+00 7.000043E-01 
25 -6.185046E+00 4.816568E+00 7.077592E-01 
26 -6.291896E+00 4.059866E+00 6.621673E-01 
27 -6.272599E+00 4.266701E+00 6.912818E-01 
28 -6.377700E+00 3.594852E+00 6.457576E-01 
29 -6.441107E+00 3.281052E+00 6.274761E-01 
30 -6.476504E+00 2.931625E+00 6.029274E-01 
31 -6.475145E+00 3.012161E+00 6.209321E-01 
32 -6.529768E+00 2.940434E+00 6.230067E-01 
33 -6.583552E+00 2.412739E+00 5.728286E-01 
34 -6.616348E+00 2.453682E+00 5.861019E-01 
35 -6.641388E+00 2.224026E+00 5.659150E-01 
36 -6.662002E+00 2.147191E+00 5.637236E-01 
37 -6.648598E+00 2.140782E+00 5.704374E-01 
38 -6.693046E+00 1.872159E+00 5.404228E-01 
39 -6.707164E+00 2.005270E+00 5.664302E-01 
40 -6.746605E+00 1.832598E+00 5.482209E-01 
41 -6.828716E+00 1.546484E+00 5.097150E-01 
42 -6.810325E+00 1.556962E+00 5.174915E-01 
43 -6.779294E+00 1.632696E+00 5.360545E-01 
44 -6.848121E+00 1.436485E+00 5.084952E-01 
45 -6.865934E+00 1.320475E+00 4.929173E-01 
46 -6.935183E+00 1.102397E+00 4.552479E-01 
47 -6.926063E+00 1.132633E+00 4.663321E-01 
48 -6.924037E+00 1.122335E+00 4.690177E-01 
49 -6.882187E+00 1.298323E+00 5.095729E-01 
50 -6.920980E+00 1.127093E+00 4.795069E-01 
51 -6.973221E+00 9.718290E-01 4.496003E-01 
52 -6.968223E+00 9.503316E-01 4.488544E-01 
53 -6.966353E+00 9.984871E-01 4.644063E-01 
54 -6.987008E+00 1.001433E+00 4.693775E-01 
55 -7.008651E+00 9.268049E-01 4.556361E-01 
56 -7.010469E+00 8.558852E-01 4.417486E-01 
57 -7.046333E+00 8.201217E-01 4.361975E-01 
58 -6.979284E+00 8.905465E-01 4.584419E-01 
59 -6.970099E+00 8.654365E-01 4.557464E-01 
60 -7.031298E+00 8.761952E-01 4.623761E-01 
61 -7.064488E+00 7.171659E-01 4.217311E-01 
62 -7.068204E+00 6.384647E-01 4.011148E-01 
63 -7.067312E+00 5.939554E-01 3.899392E-01 
64 -7.075666E+00 6.513650E-01 4.115275E-01 
65 -7.098403E+00 6.274731E-01 4.070048E-01 
66 -7.105880E+00 5.935444E-01 3.988357E-01 
67 -7.126720E+00 5.519472E-01 3.874657E-01 
68 -7.046780E+00 7.564430E-01 4.569226E-01 
69 -7.103734E+00 5.692880E-01 3.992501E-01 
70 -7.091161E+00 5.924974E-01 4.102064E-01 
71 -7.104531E+00 5.933360E-01 4.133773E-01 
72 -7.109403E+00 5.161312E-01 3.882143E-01 
73 -7.164054E+00 4.469798E-01 3.637390E-01 
74 -7.090994E+00 5.685486E-01 4.129947E-01 
75 -7.117020E+00 5.278185E-01 4.005706E-01 
76 -7.149582E+00 4.787065E-01 3.839813E-01 
77 -7.160499E+00 5.017718E-01 3.956676E-01 
78 -7.173483E+00 4.440659E-01 3.745996E-01 
79 -7.146892E+00 4.851552E-01 3.940174E-01 
80 -7.215788E+00 4.089451E-01 3.640030E-01 
81 -7.172940E+00 4.598457E-01 3.883676E-01 
82 -7.188554E+00 4.065486E-01 3.673883E-01 
83 -7.181742E+00 4.253654E-01 3.780513E-01 
84 -7.191305E+00 4.086255E-01 3.727367E-01 
85 -7.163759E+00 4.384008E-01 3.883425E-01 
86 -7.163951E+00 4.228309E-01 3.835950E-01 
87 -7.181036E+00 4.130901E-01 3.813236E-01 
88 -7.195732E+00 3.928322E-01 3.739629E-01 
89 -7.220772E+00 3.308524E-01 3.451186E-01 
90 -7.240360E+00 3.173547E-01 3.398781E-01 
91 -7.210966E+00 3.424253E-01 3.549824E-01 
92 -7.185083E+00 3.505149E-01 3.610977E-01 
93 -7.229389E+00 3.289930E-01 3.517120E-01 
94 -7.219752E+00 3.486605E-01 3.639931E-01 
95 -7.245361E+00 3.127742E-01 3.465621E-01 
96 -7.200609E+00 3.627110E-01 3.751425E-01 
97 -7.215092E+00 3.197175E-01 3.540187E-01 
98 -7.262560E+00 2.970760E-01 3.429899E-01 
99 -7.211447E+00 3.128852E-01 3.537712E-01 
100 -7.233936E+00 3.011766E-01 3.488199E-01 
105 -7.252459E+00 2.742919E-01 3.410275E-01 
110 -7.237339E+00 2.496586E-01 3.329391E-01 
115 -7.264469E+00 2.456903E-01 3.376393E-01 
120 -7.261346E+00 2.274758E-01 3.318106E-01 
125 -7.268716E+00 1.962296E-01 3.144833E-01 
130 -7.265900E+00 1.930283E-01 3.180359E-01 
135 -7.302065E+00 1.832745E-01 3.157551E-01 
140 -7.323597E+00 1.512027E-01 2.920245E-01 
145 -7.275371E+00 1.852660E-01 3.289306E-01 
150 -7.300014E+00 1.604127E-01 3.112704E-01 
155 -7.332767E+00 1.373320E-01 2.927374E-01 
160 -7.323245E+00 1.231521E-01 2.816202E-01 
165 -7.329182E+00 1.282198E-01 2.917841E-01 
170 -7.313569E+00 1.277560E-01 2.956097E-01 
175 -7.337211E+00 1.055532E-01 2.725976E-01 
180 -7.344286E+00 1.082905E-01 2.800042E-01 
185 -7.326433E+00 1.139493E-01 2.911671E-01 
190 -7.346187E+00 1.006868E-01 2.773531E-01 
195 -7.341341E+00 1.132539E-01 2.979783E-01 
200 -7.322948E+00 1.022070E-01 2.866608E-01 
205 -7.363481E+00 8.877415E-02 2.704624E-01 
210 -7.322075E+00 1.095730E-01 3.041047E-01 
215 -7.343195E+00 8.651342E-02 2.734001E-01 
220 -7.320644E+00 1.004935E-01 2.980542E-01 
225 -7.360934E+00 7.947792E-02 2.680448E-01 
230 -7.345809E+00 8.642464E-02 2.825887E-01 
235 -7.360403E+00 6.892499E-02 2.550788E-01 
240 -7.354809E+00 7.485180E-02 2.686208E-01 
245 -7.353844E+00 6.558005E-02 2.540291E-01 
250 -7.372610E+00 7.550308E-02 2.753272E-01 
255 -7.339417E+00 7.305702E-02 2.735149E-01 
260 -7.374522E+00 7.048647E-02 2.712708E-01 
265 -7.365737E+00 6.677082E-02 2.665411E-01 
270 -7.362275E+00 6.882275E-02 2.731371E-01 
275 -7.369773E+00 5.347847E-02 2.429820E-01 
280 -7.353452E+00 6.451750E-02 2.692910E-01 
285 -7.381664E+00 6.205005E-02 2.664306E-01 
290 -7.360296E+00 5.771130E-02 2.591832E-01 
295 -7.370646E+00 5.125549E-02 2.463463E-01 
300 -7.362540E+00 5.248498E-02 2.513800E-01 
305 -7.379741E+00 4.885630E-02 2.445406E-01 
310 -7.364727E+00 5.279901E-02 2.562849E-01 
315 -7.397862E+00 4.346793E-02 2.344002E-01 
320 -7.376419E+00 4.744449E-02 2.468172E-01 
325 -7.353530E+00 4.703340E-02 2.476521E-01 
330 -7.381437E+00 4.780303E-02 2.515774E-01 
335 -7.377458E+00 4.119723E-02 2.353063E-01 
340 -7.387562E+00 4.054641E-02 2.351708E-01 
345 -7.376323E+00 3.543547E-02 2.214559E-01 
350 -7.388478E+00 4.696249E-02 2.567788E-01 
355 -7.375801E+00 4.224399E-02 2.452661E-01 
360 -7.362618E+00 3.456515E-02 2.234101E-01 
365 -7.376921E+00 4.091325E-02 2.447386E-01 
370 -7.395777E+00 2.951039E-02 2.092688E-01 
375 -7.394018E+00 3.051377E-02 2.142258E-01 
380 -7.382191E+00 3.505812E-02 2.311462E-01 
385 -7.394864E+00 3.258855E-02 2.243139E-01 
390 -7.364948E+00 3.574763E-02 2.364515E-01 
395 -7.412302E+00 2.718360E-02 2.075062E-01 
400 -7.375338E+00 3.274490E-02 2.291786E-01 
405 -7.377190E+00 3.589647E-02 2.414454E-01 
410 -7.366235E+00 3.478487E-02 2.391366E-01 
415 -7.377488E+00 3.645774E-02 2.463041E-01 
420 -7.400951E+00 2.577231E-02 2.083281E-01 
425 -7.386304E+00 2.794094E-02 2.182003E-01 
430 -7.392412E+00 2.724962E-02 2.167449E-01 
435 -7.383351E+00 3.298471E-02 2.398444E-01 
440 -7.389878E+00 2.484287E-02 2.093390E-01 
445 -7.382391E+00 3.071395E-02 2.340805E-01 
450 -7.387577E+00 2.451025E-02 2.102772E-01 
455 -7.394275E+00 2.284705E-02 2.041397E-01 
460 -7.383691E+00 2.219424E-02 2.023022E-01 
465 -7.367544E+00 2.952470E-02 2.345933E-01 
470 -7.393696E+00 2.480667E-02 2.161846E-01 
475 -7.401089E+00 2.009857E-02 1.956213E-01 
480 -7.394868E+00 2.578630E-02 2.227394E-01 
485 -7.404891E+00 2.380706E-02 2.151300E-01 
490 -7.408626E+00 1.977664E-02 1.970820E-01 
495 -7.405985E+00 1.827386E-02 1.904083E-01 
500 -7.401995E+00 2.636669E-02 2.298670E-01 
505 -7.376089E+00 2.004112E-02 2.014031E-01 
510 -7.402021E+00 1.755508E-02 1.894270E-01 
515 -7.386979E+00 1.746782E-02 1.898778E-01 
520 -7.391936E+00 1.618595E-02 1.836614E-01 
525 -7.403483E+00 2.031771E-02 2.067570E-01 
530 -7.397996E+00 1.997899E-02 2.059985E-01 
535 -7.387071E+00 1.638433E-02 1.874247E-01 
540 -7.421822E+00 1.586746E-02 1.853030E-01 
545 -7.397416E+00 1.314499E-02 1.694363E-01 
550 -7.415534E+00 1.444612E-02 1.784355E-01 
555 -7.377077E+00 2.303380E-02 2.263342E-01 
560 -7.406999E+00 1.519668E-02 1.846655E-01 
565 -7.417653E+00 1.633115E-02 1.922855E-01 
570 -7.402950E+00 1.857797E-02 2.059905E-01 
575 -7.411867E+00 1.360730E-02 1.770628E-01 
580 -7.411727E+00 1.175890E-02 1.653109E-01 
585 -7.417485E+00 1.374580E-02 1.794997E-01 
590 -7.399863E+00 1.536788E-02 1.906034E-01 
595 -7.386498E+00 1.423067E-02 1.841899E-01 
600 -7.417995E+00 9.763456E-03 1.532036E-01 
605 -7.399449E+00 1.623801E-02 1.983959E-01 
610 -7.405829E+00 1.480176E-02 1.901986E-01 
615 -7.399162E+00 1.460571E-02 1.897062E-01 
620 -7.411029E+00 1.444322E-02 1.894121E-01 
625 -7.426404E+00 1.229963E-02 1.754943E-01 
630 -7.416932E+00 1.404563E-02 1.882848E-01 
635 -7.399112E+00 1.337499E-02 1.844613E-01 
640 -7.411225E+00 1.100780E-02 1.680000E-01 
645 -7.413325E+00 9.543175E-03 1.570336E-01 
650 -7.406786E+00 8.747351E-03 1.509242E-01 
655 -7.415612E+00 1.084617E-02 1.687019E-01 
660 -7.413755E+00 1.163382E-02 1.753848E-01 
665 -7.411300E+00 8.591414E-03 1.512862E-01 
670 -7.410336E+00 9.961554E-03 1.635139E-01 
675 -7.412456E+00 9.873259E-03 1.633931E-01 
680 -7.421870E+00 5.961456E-03 1.274324E-01 
685 -7.409961E+00 1.191074E-02 1.807846E-01 
690 -7.413830E+00 8.421212E-03 1.525655E-01 
695 -7.402326E+00 8.744910E-03 1.560315E-01 
700 -7.405025E+00 1.000789E-02 1.675175E-01 
705 -7.395214E+00 7.894865E-03 1.493154E-01 
710 -7.410045E+00 8.106007E-03 1.518337E-01 
715 -7.403206E+00 6.394416E-03 1.353278E-01 
720 -7.415120E+00 7.925087E-03 1.511818E-01 
725 -7.390775E+00 9.833800E-03 1.689892E-01 
730 -7.405437E+00 7.054331E-03 1.436206E-01 
735 -7.401386E+00 6.379127E-03 1.370407E-01 
740 -7.418442E+00 6.057360E-03 1.339926E-01 
745 -7.405579E+00 6.254349E-03 1.366125E-01 
750 -7.415085E+00 6.283751E-03 1.373914E-01 
755 -7.418254E+00 6.200642E-03 1.369334E-01 
760 -7.415897E+00 5.216326E-03 1.260099E-01 
765 -7.405557E+00 7.763082E-03 1.542274E-01 
770 -7.420166E+00 4.961972E-03 1.237042E-01 
775 -7.410468E+00 4.790516E-03 1.219416E-01 
780 -7.414512E+00 8.191927E-03 1.599737E-01 
785 -7.405287E+00 6.734345E-03 1.455087E-01 
790 -7.405964E+00 5.606184E-03 1.331840E-01 
795 -7.404934E+00 4.642972E-03 1.215863E-01 
800 -7.406882E+00 6.203579E-03 1.409832E-01 
805 -7.406958E+00 6.955099E-03 1.497439E-01 
810 -7.412121E+00 5.415844E-03 1.325481E-01 
815 -7.409563E+00 5.111192E-03 1.291624E-01 
820 -7.406642E+00 4.750393E-03 1.249011E-01 
825 -7.410376E+00 3.950642E-03 1.142494E-01 
830 -7.400008E+00 3.372903E-03 1.058845E-01 
835 -7.397584E+00 4.976396E-03 1.290003E-01 
840 -7.409647E+00 4.064366E-03 1.169296E-01 
845 -7.413445E+00 3.245486E-03 1.047985E-01 
850 -7.403147E+00 4.540211E-03 1.243176E-01 
855 -7.396343E+00 3.703273E-03 1.126055E-01 
860 -7.411084E+00 3.631378E-03 1.118323E-01 
865 -7.424210E+00 2.073262E-03 8.474539E-02 
870 -7.404746E+00 2.966678E-03 1.016657E-01 
875 -7.408200E+00 2.800871E-03 9.906690E-02 
880 -7.407356E+00 4.076226E-03 1.198525E-01 
885 -7.412549E+00 2.442116E-03 9.303150E-02 
890 -7.410450E+00 2.398817E-03 9.246288E-02 
895 -7.414045E+00 2.092313E-03 8.659589E-02 
900 -7.420243E+00 1.706992E-03 7.843469E-02 
905 -7.410682E+00 2.493505E-03 9.506031E-02 
910 -7.412296E+00 2.150377E-03 8.852103E-02 
915 -7.419265E+00 1.504017E-03 7.423421E-02 
920 -7.409832E+00 2.029860E-03 8.647546E-02 
925 -7.409485E+00 1.740612E-03 8.029463E-02 
930 -7.416500E+00 1.554958E-03 7.609640E-02 
935 -7.408489E+00 1.510240E-03 7.519534E-02 
940 -7.414328E+00 1.198075E-03 6.715320E-02 
945 -7.413204E+00 1.266690E-03 6.923260E-02 
950 -7.409545E+00 1.610461E-03 7.827001E-02 
955 -7.412561E+00 1.213917E-03 6.813237E-02 
960 -7.411972E+00 8.323679E-04 5.656520E-02 
965 -7.415275E+00 6.581817E-04 5.043029E-02 
970 -7.412824E+00 4.561050E-04 4.208933E-02 
975 -7.414549E+00 5.314538E-04 4.554992E-02 
980 -7.414329E+00 4.325060E-04 4.119652E-02 
985 -7.416301E+00 1.365198E-04 2.320418E-02 
990 -7.414951E+00 2.122091E-04 2.900339E-02 
995 -7.413900E+00 9.105260E-05 1.904609E-02 
999 -7.414398E+00 0.000000E+00 0.000000E+00 
# alpha and beta::  -8.653228E+00  1.926316E+01 
# estimated dG upper bond:: -8.653228E+00 
# Last error is highly underestimated because there is only one block! 
# max. error::  2.862960E+00 
